# Matter power spectrum P(k) at redshift z=0.5
# for k=1.05392e-05 to 105.5 h/Mpc,
# number of wavenumbers equal to 132
#    1:k (h/Mpc)              2:P (Mpc/h)^3        
       1.053918787543e-05       3.015684555576e+01 
       1.326805143606e-05       3.763355434795e+01 
       1.670348711784e-05       4.696391014805e+01 
       2.102844439823e-05       5.860742918073e+01 
       2.647324302343e-05       7.313750927118e+01 
       3.332783837480e-05       9.126961322322e+01 
       4.195726265021e-05       1.138963832539e+02 
       5.282106415967e-05       1.421313833864e+02 
       6.649777994862e-05       1.773634916261e+02 
       8.371574500521e-05       2.213243902251e+02 
       1.053918787543e-04       2.761720921296e+02 
       1.326805143606e-04       3.445937047874e+02 
       1.670348711784e-04       4.299309320343e+02 
       2.102844439823e-04       5.363313332805e+02 
       2.647324302343e-04       6.689269779799e+02 
       3.332783837480e-04       8.340387479526e+02 
       4.195726265021e-04       1.039398141489e+03 
       5.282106415967e-04       1.294368502872e+03 
       6.649777994862e-04       1.610134864039e+03 
       8.371574500521e-04       1.999817447871e+03 
       1.053918787543e-03       2.478437752887e+03 
       1.326805143606e-03       3.062588640760e+03 
       1.670348711784e-03       3.769444727110e+03 
       2.102844439823e-03       4.615240358336e+03 
       2.647324302343e-03       5.612433727525e+03 
       3.332783837480e-03       6.765991006645e+03 
       4.195726265021e-03       8.068302511923e+03 
       5.282106415967e-03       9.491943731568e+03 
       6.649777994862e-03       1.098198756497e+04 
       8.371574500521e-03       1.244604551859e+04 
       1.053918787543e-02       1.374429988945e+04 
       1.326805143606e-02       1.468714980046e+04 
       1.670348711782e-02       1.504495174164e+04 
       2.102844423000e-02       1.459112754255e+04 
       2.647311508759e-02       1.322336079246e+04 
       3.331014445964e-02       1.114874539017e+04 
       4.136885460944e-02       9.073901116895e+03 
       4.816661498511e-02       7.881445063200e+03 
       5.309592667177e-02       7.291888499673e+03 
       5.716027213130e-02       6.922007755808e+03 
       6.078887689376e-02       6.641512709417e+03 
       6.417301183884e-02       6.396018851001e+03 
       6.741388326782e-02       6.158187390535e+03 
       7.057216188573e-02       5.913475641532e+03 
       7.368769346297e-02       5.654915855973e+03 
       7.678855618444e-02       5.380798276293e+03 
       7.989569616866e-02       5.093340051955e+03 
       8.302550294513e-02       4.797651533558e+03 
       8.619133535352e-02       4.500824688532e+03 
       8.940447334071e-02       4.210930868463e+03 
       9.267473708059e-02       3.936045491403e+03 
       9.601090385039e-02       3.683370611927e+03 
       9.942099686107e-02       3.458422576112e+03 
       1.029124901290e-01       3.264467632174e+03 
       1.064924565837e-01       3.102173797745e+03 
       1.101676767479e-01       2.969453242239e+03 
       1.139447193710e-01       2.861564601443e+03 
       1.178300016993e-01       2.771419965717e+03 
       1.218298347122e-01       2.690249029862e+03 
       1.259504571236e-01       2.608607196082e+03 
       1.301980609468e-01       2.517903875692e+03 
       1.345788107502e-01       2.412025841470e+03 
       1.390988582889e-01       2.288848284885e+03 
       1.437643538992e-01       2.150926885175e+03 
       1.485814558534e-01       2.005042858056e+03 
       1.535563387398e-01       1.860617712492e+03 
       1.586952018580e-01       1.727379050764e+03 
       1.640042785656e-01       1.612922720546e+03 
       1.694898474838e-01       1.520812731800e+03 
       1.751582464469e-01       1.449671267455e+03 
       1.810158900696e-01       1.393483101459e+03 
       1.870692917951e-01       1.343516976175e+03 
       1.933250912854e-01       1.290146334441e+03 
       1.997900880147e-01       1.226218088596e+03 
       2.064712819438e-01       1.150839964484e+03 
       2.133759221837e-01       1.069196150601e+03 
       2.205115646163e-01       9.897447401033e+02 
       2.278861395380e-01       9.201570180352e+02 
       2.355080305422e-01       8.642326801730e+02 
       2.433861660729e-01       8.205629342447e+02 
       2.515301253921e-01       7.832323869657e+02 
       2.599502611228e-01       7.449643108787e+02 
       2.686578411025e-01       7.013390076809e+02 
       2.776652130364e-01       6.532144917150e+02 
       2.869859964475e-01       6.057501380610e+02 
       2.966353077477e-01       5.643902655274e+02 
       3.066300260112e-01       5.306792907647e+02 
       3.169891093796e-01       5.016919278232e+02 
       3.277339751681e-01       4.729157511932e+02 
       3.388889610125e-01       4.420023562626e+02 
       3.504818902473e-01       4.105717138959e+02 
       3.625447728490e-01       3.818599266833e+02 
       3.751146847558e-01       3.571786108826e+02 
       3.882348848407e-01       3.346858610993e+02 
       4.019562528021e-01       3.121129534340e+02 
       4.163391668784e-01       2.894619526898e+02 
       4.314559942899e-01       2.683099582524e+02 
       4.473944509880e-01       2.491825308828e+02 
       4.642622201314e-01       2.310527686015e+02 
       4.821934354078e-01       2.131142979220e+02 
       5.013579996608e-01       1.960209188212e+02 
       5.219753429807e-01       1.801236836121e+02 
       5.443353695948e-01       1.646598964478e+02 
       5.688315040792e-01       1.496885003362e+02 
       5.960150320369e-01       1.353593636729e+02 
       6.266889140924e-01       1.213050218181e+02 
       6.620793148496e-01       1.075488006163e+02 
       7.041710860999e-01       9.384847945032e+01 
       7.564162908969e-01       8.003066899113e+01 
       8.253512520039e-01       6.579476592466e+01 
       9.244174391603e-01       5.086760144333e+01 
       1.081054574453e+00       3.548843586068e+01 
       1.330420137806e+00       2.184340845615e+01 
       1.672107132583e+00       1.267838860340e+01 
       2.105005058756e+00       7.263685839372e+00 
       2.650044162511e+00       4.127005188282e+00 
       3.336207938458e+00       2.327369304643e+00 
       4.200036952755e+00       1.303597704786e+00 
       5.287533250297e+00       7.256629312929e-01 
       6.656609974506e+00       4.016692309144e-01 
       8.380175453308e+00       2.211836215001e-01 
       1.055001583346e+01       1.212162576462e-01 
       1.328168302758e+01       6.613804929722e-02 
       1.672064827481e+01       3.593824385614e-02 
       2.105004901483e+01       1.945259940267e-02 
       2.650044162429e+01       1.049052466422e-02 
       3.336207938458e+01       5.637161121949e-03 
       4.200036952755e+01       3.018287864951e-03 
       5.287533250297e+01       1.609995194199e-03 
       6.656609974506e+01       8.552195243169e-04 
       8.380175453308e+01       4.520813210022e-04 
       1.055001583346e+02       2.375136450745e-04 
